# Pulseq sequence file
# Created by MATLAB mr toolbox

[VERSION]
major 1
minor 5
revision 0

[DEFINITIONS]
AdcRasterTime 1e-07 
BlockDurationRaster 1e-05 
FOV 0.15 0.15 0.002 
GradientRasterTime 1e-05 
Name 251204_0947_tomgr_gre 
RadiofrequencyRasterTime 1e-06 
Rot_Matrix 1 0 0 0 1 0 0 0 1 
Scan_ID 512040947 

# Format of blocks:
# NUM DUR RF  GX  GY  GZ  ADC  EXT
[BLOCKS]
   1 164   1   0   0   1  0  0
   2 150   0   2   3   4  0  0
   3   1   0   0   0   0  0  0
   4 338   0   5   0   0  0  0
   5 150   0   2   6   7  0  0
   6 4197   0   0   0   0  0  0
   7 164   2   0   0   1  0  0
   8 150   0   2   3   4  0  0
   9   1   0   0   0   0  0  0
  10 338   0   5   0   0  0  0
  11 150   0   2   6   7  0  0
  12 4197   0   0   0   0  0  0
  13 164   3   0   0   1  0  0
  14 150   0   2   3   4  0  0
  15   1   0   0   0   0  0  0
  16 338   0   5   0   0  0  0
  17 150   0   2   6   7  0  0
  18 4197   0   0   0   0  0  0
  19 164   4   0   0   1  0  0
  20 150   0   2   3   4  0  0
  21   1   0   0   0   0  0  0
  22 338   0   5   0   0  0  0
  23 150   0   2   6   7  0  0
  24 4197   0   0   0   0  0  0
  25 164   5   0   0   1  0  0
  26 150   0   2   3   4  0  0
  27   1   0   0   0   0  0  0
  28 338   0   5   0   0  0  0
  29 150   0   2   6   7  0  0
  30 4197   0   0   0   0  0  0
  31 164   6   0   0   1  0  0
  32 150   0   2   3   4  0  0
  33   1   0   0   0   0  0  0
  34 338   0   5   0   0  0  0
  35 150   0   2   6   7  0  0
  36 4197   0   0   0   0  0  0
  37 164   7   0   0   1  0  0
  38 150   0   2   3   4  0  0
  39   1   0   0   0   0  0  0
  40 338   0   5   0   0  0  0
  41 150   0   2   6   7  0  0
  42 4197   0   0   0   0  0  0
  43 164   4   0   0   1  0  0
  44 150   0   2   3   4  0  0
  45   1   0   0   0   0  0  0
  46 338   0   5   0   0  0  0
  47 150   0   2   6   7  0  0
  48 4197   0   0   0   0  0  0
  49 164   8   0   0   1  0  0
  50 150   0   2   3   4  0  0
  51   1   0   0   0   0  0  0
  52 338   0   5   0   0  0  0
  53 150   0   2   6   7  0  0
  54 4197   0   0   0   0  0  0
  55 164   2   0   0   1  0  0
  56 150   0   2   3   4  0  0
  57   1   0   0   0   0  0  0
  58 338   0   5   0   0  0  0
  59 150   0   2   6   7  0  0
  60 4197   0   0   0   0  0  0
  61 164   9   0   0   1  0  0
  62 150   0   2   3   4  0  0
  63   1   0   0   0   0  0  0
  64 338   0   5   0   0  0  0
  65 150   0   2   6   7  0  0
  66 4197   0   0   0   0  0  0
  67 164   2   0   0   1  0  0
  68 150   0   2   3   4  0  0
  69   1   0   0   0   0  0  0
  70 338   0   5   0   0  0  0
  71 150   0   2   6   7  0  0
  72 4197   0   0   0   0  0  0
  73 164   8   0   0   1  0  0
  74 150   0   2   3   4  0  0
  75   1   0   0   0   0  0  0
  76 338   0   5   0   0  0  0
  77 150   0   2   6   7  0  0
  78 4197   0   0   0   0  0  0
  79 164   4   0   0   1  0  0
  80 150   0   2   3   4  0  0
  81   1   0   0   0   0  0  0
  82 338   0   5   0   0  0  0
  83 150   0   2   6   7  0  0
  84 4197   0   0   0   0  0  0
  85 164   7   0   0   1  0  0
  86 150   0   2   3   4  0  0
  87   1   0   0   0   0  0  0
  88 338   0   5   0   0  0  0
  89 150   0   2   6   7  0  0
  90 4197   0   0   0   0  0  0
  91 164   6   0   0   1  0  0
  92 150   0   2   3   4  0  0
  93   1   0   0   0   0  0  0
  94 338   0   5   0   0  0  0
  95 150   0   2   6   7  0  0
  96 4197   0   0   0   0  0  0
  97 164   5   0   0   1  0  0
  98 150   0   2   3   4  0  0
  99   1   0   0   0   0  0  0
 100 338   0   5   0   0  0  0
 101 150   0   2   6   7  0  0
 102 4197   0   0   0   0  0  0
 103 164   4   0   0   1  0  0
 104 150   0   2   3   4  0  0
 105   1   0   0   0   0  0  0
 106 338   0   5   0   0  0  0
 107 150   0   2   6   7  0  0
 108 4197   0   0   0   0  0  0
 109 164   3   0   0   1  0  0
 110 150   0   2   3   4  0  0
 111   1   0   0   0   0  0  0
 112 338   0   5   0   0  0  0
 113 150   0   2   6   7  0  0
 114 4197   0   0   0   0  0  0
 115 164   2   0   0   1  0  0
 116 150   0   2   3   4  0  0
 117   1   0   0   0   0  0  0
 118 338   0   5   0   0  0  0
 119 150   0   2   6   7  0  0
 120 4197   0   0   0   0  0  0
 121 164   1   0   0   1  0  0
 122 150   0   2   3   4  0  0
 123   1   0   0   0   0  0  0
 124 338   0   5   0   0  0  0
 125 150   0   2   6   7  0  0
 126 4197   0   0   0   0  0  0
 127 164   2   0   0   1  0  0
 128 150   0   2   3   4  0  0
 129   1   0   0   0   0  0  0
 130 338   0   5   0   0  0  0
 131 150   0   2   6   7  0  0
 132 4197   0   0   0   0  0  0
 133 164   3   0   0   1  0  0
 134 150   0   2   3   4  0  0
 135   1   0   0   0   0  0  0
 136 338   0   5   0   0  0  0
 137 150   0   2   6   7  0  0
 138 4197   0   0   0   0  0  0
 139 164   4   0   0   1  0  0
 140 150   0   2   3   4  0  0
 141   1   0   0   0   0  0  0
 142 338   0   5   0   0  0  0
 143 150   0   2   6   7  0  0
 144 4197   0   0   0   0  0  0
 145 164   5   0   0   1  0  0
 146 150   0   2   3   4  0  0
 147   1   0   0   0   0  0  0
 148 338   0   5   0   0  0  0
 149 150   0   2   6   7  0  0
 150 4197   0   0   0   0  0  0
 151 164   6   0   0   1  0  0
 152 150   0   2   3   4  0  0
 153   1   0   0   0   0  0  0
 154 338   0   5   0   0  0  0
 155 150   0   2   6   7  0  0
 156 4197   0   0   0   0  0  0
 157 164   7   0   0   1  0  0
 158 150   0   2   3   4  0  0
 159   1   0   0   0   0  0  0
 160 338   0   5   0   0  0  0
 161 150   0   2   6   7  0  0
 162 4197   0   0   0   0  0  0
 163 164   4   0   0   1  0  0
 164 150   0   2   3   4  0  0
 165   1   0   0   0   0  0  0
 166 338   0   5   0   0  0  0
 167 150   0   2   6   7  0  0
 168 4197   0   0   0   0  0  0
 169 164   8   0   0   1  0  0
 170 150   0   2   3   4  0  0
 171   1   0   0   0   0  0  0
 172 338   0   5   0   0  0  0
 173 150   0   2   6   7  0  0
 174 4197   0   0   0   0  0  0
 175 164   2   0   0   1  0  0
 176 150   0   2   3   4  0  0
 177   1   0   0   0   0  0  0
 178 338   0   5   0   0  0  0
 179 150   0   2   6   7  0  0
 180 4197   0   0   0   0  0  0
 181 164   9   0   0   1  0  0
 182 150   0   2   3   4  0  0
 183   1   0   0   0   0  0  0
 184 338   0   5   0   0  0  0
 185 150   0   2   6   7  0  0
 186 4197   0   0   0   0  0  0
 187 164   2   0   0   1  0  0
 188 150   0   2   3   4  0  0
 189   1   0   0   0   0  0  0
 190 338   0   5   0   0  0  0
 191 150   0   2   6   7  0  0
 192 4197   0   0   0   0  0  0
 193 164   8   0   0   1  0  0
 194 150   0   2   3   4  0  0
 195   1   0   0   0   0  0  0
 196 338   0   5   0   0  0  0
 197 150   0   2   6   7  0  0
 198 4197   0   0   0   0  0  0
 199 164   4   0   0   1  0  0
 200 150   0   2   3   4  0  0
 201   1   0   0   0   0  0  0
 202 338   0   5   0   0  0  0
 203 150   0   2   6   7  0  0
 204 4197   0   0   0   0  0  0
 205 164   7   0   0   1  0  0
 206 150   0   2   3   4  0  0
 207   1   0   0   0   0  0  0
 208 338   0   5   0   0  0  0
 209 150   0   2   6   7  0  0
 210 4197   0   0   0   0  0  0
 211 164   6   0   0   1  0  0
 212 150   0   2   3   4  0  0
 213   1   0   0   0   0  0  0
 214 338   0   5   0   0  0  0
 215 150   0   2   6   7  0  0
 216 4197   0   0   0   0  0  0
 217 164   5   0   0   1  0  0
 218 150   0   2   3   4  0  0
 219   1   0   0   0   0  0  0
 220 338   0   5   0   0  0  0
 221 150   0   2   6   7  0  0
 222 4197   0   0   0   0  0  0
 223 164   4   0   0   1  0  0
 224 150   0   2   3   4  0  0
 225   1   0   0   0   0  0  0
 226 338   0   5   0   0  0  0
 227 150   0   2   6   7  0  0
 228 4197   0   0   0   0  0  0
 229 164   3   0   0   1  0  0
 230 150   0   2   3   4  0  0
 231   1   0   0   0   0  0  0
 232 338   0   5   0   0  0  0
 233 150   0   2   6   7  0  0
 234 4197   0   0   0   0  0  0
 235 164   2   0   0   1  0  0
 236 150   0   2   3   4  0  0
 237   1   0   0   0   0  0  0
 238 338   0   5   0   0  0  0
 239 150   0   2   6   7  0  0
 240 4197   0   0   0   0  0  0
 241 164   1   0   0   1  0  0
 242 150   0   2   3   4  0  0
 243   1   0   0   0   0  0  0
 244 338   0   5   0   0  0  0
 245 150   0   2   6   7  0  0
 246 4197   0   0   0   0  0  0
 247 164   2   0   0   1  0  0
 248 150   0   2   3   4  0  0
 249   1   0   0   0   0  0  0
 250 338   0   5   0   0  0  0
 251 150   0   2   6   7  0  0
 252 4197   0   0   0   0  0  0
 253 164   3   0   0   1  0  0
 254 150   0   2   3   4  0  0
 255   1   0   0   0   0  0  0
 256 338   0   5   0   0  0  0
 257 150   0   2   6   7  0  0
 258 4197   0   0   0   0  0  0
 259 164   4   0   0   1  0  0
 260 150   0   2   3   4  0  0
 261   1   0   0   0   0  0  0
 262 338   0   5   0   0  0  0
 263 150   0   2   6   7  0  0
 264 4197   0   0   0   0  0  0
 265 164   5   0   0   1  0  0
 266 150   0   2   3   4  0  0
 267   1   0   0   0   0  0  0
 268 338   0   5   0   0  0  0
 269 150   0   2   6   7  0  0
 270 4197   0   0   0   0  0  0
 271 164   6   0   0   1  0  0
 272 150   0   2   3   4  0  0
 273   1   0   0   0   0  0  0
 274 338   0   5   0   0  0  0
 275 150   0   2   6   7  0  0
 276 4197   0   0   0   0  0  0
 277 164   7   0   0   1  0  0
 278 150   0   2   3   4  0  0
 279   1   0   0   0   0  0  0
 280 338   0   5   0   0  0  0
 281 150   0   2   6   7  0  0
 282 4197   0   0   0   0  0  0
 283 164   4   0   0   1  0  0
 284 150   0   2   3   4  0  0
 285   1   0   0   0   0  0  0
 286 338   0   5   0   0  0  0
 287 150   0   2   6   7  0  0
 288 4197   0   0   0   0  0  0
 289 164   8   0   0   1  0  0
 290 150   0   2   3   4  0  0
 291   1   0   0   0   0  0  0
 292 338   0   5   0   0  0  0
 293 150   0   2   6   7  0  0
 294 4197   0   0   0   0  0  0
 295 164   2   0   0   1  0  0
 296 150   0   2   3   4  0  0
 297   1   0   0   0   0  0  0
 298 338   0   5   0   0  0  0
 299 150   0   2   6   7  0  0
 300 4197   0   0   0   0  0  0
 301 164   9   0   0   1  0  0
 302 150   0   2   3   4  0  0
 303   1   0   0   0   0  0  0
 304 338   0   5   0   0  1  0
 305 150   0   2   6   7  0  0
 306 4197   0   0   0   0  0  0
 307 164   2   0   0   1  0  0
 308 150   0   2   8   4  0  0
[RF]
1      219.433 1 2 0 500 320 0 0 0 0 e
2      219.433 1 2 0 500 320 0 0 0 2.04204 e
3      219.433 1 2 0 500 320 0 0 0 1.88496 e
4      219.433 1 2 0 500 320 0 0 0 5.81195 e
5      219.433 1 2 0 500 320 0 0 0 1.25664 e
6      219.433 1 2 0 500 320 0 0 0 0.785398 e
7      219.433 1 2 0 500 320 0 0 0 4.39823 e
8      219.433 1 2 0 500 320 0 0 0 5.02655 e
9      219.433 1 2 0 500 320 0 0 0 3.14159 e

# Format of trapezoid gradients:
# id amplitude rise flat fall delay
# ..      Hz/m   us   us   us    us
[TRAP]
 1        2e+06 320 1000 320   0
 2      -626667 100 1300 100   0
 3      -609524 100 1300 100   0
 4      -985075 160 1180 160   0
 5       533333  90 3200  90   0
 6       609524 100 1300 100   0
 7  2.39286e+06 380  740 380   0
 8      -604762 100 1300 100   0
 9       604762 100 1300 100   0
10      -600000 100 1300 100   0
11       600000 100 1300 100   0
12      -595238 100 1300 100   0
13       595238 100 1300 100   0
14      -590476 100 1300 100   0
15       590476 100 1300 100   0
16      -585714 100 1300 100   0
17       585714 100 1300 100   0
18      -580952 100 1300 100   0
19       580952 100 1300 100   0
20      -572104  90 1320  90   0
21       572104  90 1320  90   0
22      -567376  90 1320  90   0
23       567376  90 1320  90   0
24      -562648  90 1320  90   0
25       562648  90 1320  90   0
26      -557920  90 1320  90   0
27       557920  90 1320  90   0
28      -553191  90 1320  90   0
29       553191  90 1320  90   0
30      -548463  90 1320  90   0
31       548463  90 1320  90   0
32      -543735  90 1320  90   0
33       543735  90 1320  90   0
34      -539007  90 1320  90   0
35       539007  90 1320  90   0
36      -534279  90 1320  90   0
37       534279  90 1320  90   0
38      -529551  90 1320  90   0
39       529551  90 1320  90   0
40      -524823  90 1320  90   0
41       524823  90 1320  90   0
42      -520095  90 1320  90   0
43       520095  90 1320  90   0
44      -515366  90 1320  90   0
45       515366  90 1320  90   0
46      -507042  80 1340  80   0
47       507042  80 1340  80   0
48      -502347  80 1340  80   0
49       502347  80 1340  80   0
50      -497653  80 1340  80   0
51       497653  80 1340  80   0
52      -492958  80 1340  80   0
53       492958  80 1340  80   0
54      -488263  80 1340  80   0
55       488263  80 1340  80   0
56      -483568  80 1340  80   0
57       483568  80 1340  80   0
58      -478873  80 1340  80   0
59       478873  80 1340  80   0
60      -474178  80 1340  80   0
61       474178  80 1340  80   0
62      -469484  80 1340  80   0
63       469484  80 1340  80   0
64      -464789  80 1340  80   0
65       464789  80 1340  80   0
66      -460094  80 1340  80   0
67       460094  80 1340  80   0
68      -455399  80 1340  80   0
69       455399  80 1340  80   0
70      -450704  80 1340  80   0
71       450704  80 1340  80   0
72      -442890  70 1360  70   0
73       442890  70 1360  70   0
74      -438228  70 1360  70   0
75       438228  70 1360  70   0
76      -433566  70 1360  70   0
77       433566  70 1360  70   0
78      -428904  70 1360  70   0
79       428904  70 1360  70   0
80      -424242  70 1360  70   0
81       424242  70 1360  70   0
82      -419580  70 1360  70   0
83       419580  70 1360  70   0
84      -414918  70 1360  70   0
85       414918  70 1360  70   0
86      -410256  70 1360  70   0
87       410256  70 1360  70   0
88      -405594  70 1360  70   0
89       405594  70 1360  70   0
90      -400932  70 1360  70   0
91       400932  70 1360  70   0
92      -396270  70 1360  70   0
93       396270  70 1360  70   0
94      -391608  70 1360  70   0
95       391608  70 1360  70   0
96      -386946  70 1360  70   0
97       386946  70 1360  70   0
98      -379630  60 1380  60   0
99       379630  60 1380  60   0
100      -375000  60 1380  60   0
101       375000  60 1380  60   0
102      -370370  60 1380  60   0
103       370370  60 1380  60   0
104      -365741  60 1380  60   0
105       365741  60 1380  60   0
106      -361111  60 1380  60   0
107       361111  60 1380  60   0
108      -356481  60 1380  60   0
109       356481  60 1380  60   0
110      -351852  60 1380  60   0
111       351852  60 1380  60   0
112      -347222  60 1380  60   0
113       347222  60 1380  60   0
114      -342593  60 1380  60   0
115       342593  60 1380  60   0
116      -337963  60 1380  60   0
117       337963  60 1380  60   0
118      -333333  60 1380  60   0
119       333333  60 1380  60   0
120      -328704  60 1380  60   0
121       328704  60 1380  60   0
122      -324074  60 1380  60   0
123       324074  60 1380  60   0
124      -317241  50 1400  50   0
125       317241  50 1400  50   0
126      -312644  50 1400  50   0
127       312644  50 1400  50   0
128      -308046  50 1400  50   0
129       308046  50 1400  50   0
130      -303448  50 1400  50   0
131       303448  50 1400  50   0
132      -298851  50 1400  50   0
133       298851  50 1400  50   0
134      -294253  50 1400  50   0
135       294253  50 1400  50   0
136      -289655  50 1400  50   0
137       289655  50 1400  50   0
138      -285057  50 1400  50   0
139       285057  50 1400  50   0
140      -280460  50 1400  50   0
141       280460  50 1400  50   0
142      -275862  50 1400  50   0
143       275862  50 1400  50   0
144      -271264  50 1400  50   0
145       271264  50 1400  50   0
146      -266667  50 1400  50   0
147       266667  50 1400  50   0
148      -262069  50 1400  50   0
149       262069  50 1400  50   0
150      -257471  50 1400  50   0
151       257471  50 1400  50   0
152      -251142  40 1420  40   0
153       251142  40 1420  40   0
154      -246575  40 1420  40   0
155       246575  40 1420  40   0
156      -242009  40 1420  40   0
157       242009  40 1420  40   0
158      -237443  40 1420  40   0
159       237443  40 1420  40   0
160      -232877  40 1420  40   0
161       232877  40 1420  40   0
162      -228311  40 1420  40   0
163       228311  40 1420  40   0
164      -223744  40 1420  40   0
165       223744  40 1420  40   0
166      -219178  40 1420  40   0
167       219178  40 1420  40   0
168      -214612  40 1420  40   0
169       214612  40 1420  40   0
170      -210046  40 1420  40   0
171       210046  40 1420  40   0
172      -205479  40 1420  40   0
173       205479  40 1420  40   0
174      -200913  40 1420  40   0
175       200913  40 1420  40   0
176      -196347  40 1420  40   0
177       196347  40 1420  40   0
178      -190476  30 1440  30   0
179       190476  30 1440  30   0
180      -185941  30 1440  30   0
181       185941  30 1440  30   0
182      -181406  30 1440  30   0
183       181406  30 1440  30   0
184      -176871  30 1440  30   0
185       176871  30 1440  30   0
186      -172336  30 1440  30   0
187       172336  30 1440  30   0
188      -167800  30 1440  30   0
189       167800  30 1440  30   0
190      -163265  30 1440  30   0
191       163265  30 1440  30   0
192      -158730  30 1440  30   0
193       158730  30 1440  30   0
194      -154195  30 1440  30   0
195       154195  30 1440  30   0
196      -149660  30 1440  30   0
197       149660  30 1440  30   0
198      -145125  30 1440  30   0
199       145125  30 1440  30   0
200      -140590  30 1440  30   0
201       140590  30 1440  30   0
202      -136054  30 1440  30   0
203       136054  30 1440  30   0
204      -131519  30 1440  30   0
205       131519  30 1440  30   0
206      -126126  20 1460  20   0
207       126126  20 1460  20   0
208      -121622  20 1460  20   0
209       121622  20 1460  20   0
210      -117117  20 1460  20   0
211       117117  20 1460  20   0
212      -112613  20 1460  20   0
213       112613  20 1460  20   0
214      -108108  20 1460  20   0
215       108108  20 1460  20   0
216      -103604  20 1460  20   0
217       103604  20 1460  20   0
218     -99099.1  20 1460  20   0
219      99099.1  20 1460  20   0
220     -94594.6  20 1460  20   0
221      94594.6  20 1460  20   0
222     -90090.1  20 1460  20   0
223      90090.1  20 1460  20   0
224     -85585.6  20 1460  20   0
225      85585.6  20 1460  20   0
226     -81081.1  20 1460  20   0
227      81081.1  20 1460  20   0
228     -76576.6  20 1460  20   0
229      76576.6  20 1460  20   0
230     -72072.1  20 1460  20   0
231      72072.1  20 1460  20   0
232     -67567.6  20 1460  20   0
233      67567.6  20 1460  20   0
234     -62639.8  10 1480  10   0
235      62639.8  10 1480  10   0
236     -58165.5  10 1480  10   0
237      58165.5  10 1480  10   0
238     -53691.3  10 1480  10   0
239      53691.3  10 1480  10   0
240       -49217  10 1480  10   0
241        49217  10 1480  10   0
242     -44742.7  10 1480  10   0
243      44742.7  10 1480  10   0
244     -40268.5  10 1480  10   0
245      40268.5  10 1480  10   0
246     -35794.2  10 1480  10   0
247      35794.2  10 1480  10   0
248     -31319.9  10 1480  10   0
249      31319.9  10 1480  10   0
250     -26845.6  10 1480  10   0
251      26845.6  10 1480  10   0
252     -22371.4  10 1480  10   0
253      22371.4  10 1480  10   0
254     -17897.1  10 1480  10   0
255      17897.1  10 1480  10   0
256     -13422.8  10 1480  10   0
257      13422.8  10 1480  10   0
258     -8948.55  10 1480  10   0
259      8948.55  10 1480  10   0
260     -4474.27  10 1480  10   0
261      4474.27  10 1480  10   0
262            0  10 1480  10   0
263           -0  10 1480  10   0

# Format of ADC events:
# id num dwell delay freqPPM phasePPM freq phase phase_id
# ..  ..    ns    us     ppm  rad/MHz   Hz   rad       ..
[ADC]
1 256 12500 90 0 0 0 4.71239 0
2 256 12500 90 0 0 0 3.61283 0
3 256 12500 90 0 0 0 0.314159 0
4 256 12500 90 0 0 0 1.09956 0
5 256 12500 90 0 0 0 5.96903 0
6 256 12500 90 0 0 0 2.35619 0
7 256 12500 90 0 0 0 2.82743 0
8 256 12500 90 0 0 0 3.45575 0
9 256 12500 90 0 0 0 1.5708 0

# Sequence Shapes
[SHAPES]

shape_id 1
num_samples 1000
2.46987503e-09
6.68164436e-08
3.09920458e-07
8.51983185e-07
1.8139994e-06
3.31769462e-06
5.48546172e-06
8.44029687e-06
1.23057349e-05
1.72057839e-05
2.32648598e-05
3.06077193e-05
3.93593938e-05
4.96451212e-05
6.15902785e-05
7.53203133e-05
9.0960675e-05
0.000108636746
0.00012847377
0.000150596786
0.000175130554
0.000202199487
0.000231927578
0.000264438332
0.00029985469
0.000338298962
0.00037989275
0.000424756882
0.000473011336
0.000524775166
0.000580166435
0.000639302138
0.000702298131
0.000769269059
0.000840328283
0.000915587807
0.000995158206
0.00107914855
0.00116766635
0.00126081745
0.001358706
0.00146143433
0.00156910294
0.00168181038
0.00179965321
0.0019227259
0.00205112078
0.00218492798
0.00232423533
0.00246912832
0.00261969001
0.00277600097
0.00293813921
0.00310618011
0.00328019639
0.00346025796
0.00364643195
0.00383878258
0.00403737111
0.0042422558
0.00445349183
0.00467113121
0.00489522278
0.00512581209
0.00536294137
0.00560664948
0.00585697182
0.00611394028
0.00637758323
0.00664792539
0.00692498783
0.00720878789
0.00749933914
0.00779665132
0.0081007303
0.00841157802
0.00872919243
0.00905356747
0.00938469301
0.00972255481
0.0100671344
0.0104184093
0.0107763526
0.011140933
0.0115121153
0.0118898595
0.0122741214
0.0126648523
0.0130619991
0.0134655042
0.0138753055
0.014291336
0.0147135246
0.0151417953
0.0155760675
0.0160162559
0.0164622705
0.0169140168
0.0173713952
0.0178343015
0.018302627
0.0187762578
0.0192550753
0.0197389563
0.0202277726
0.0207213911
0.0212196741
0.0217224788
0.0222296577
0.0227410583
0.0232565234
0.0237758909
0.0242989938
0.0248256602
0.0253557136
0.0258889722
0.0264252499
0.0269643554
0.0275060927
0.0280502611
0.0285966549
0.0291450639
0.029695273
0.0302470623
0.0308002074
0.031354479
0.0319096433
0.0324654619
0.0330216916
0.0335780848
0.0341343894
0.0346903485
0.0352457012
0.0358001817
0.0363535202
0.0369054422
0.0374556692
0.0380039182
0.0385499021
0.0390933297
0.0396339054
0.0401713298
0.0407052993
0.0412355066
0.0417616401
0.0422833846
0.0428004212
0.0433124269
0.0438190754
0.0443200365
0.0448149767
0.0453035589
0.0457854425
0.0462602837
0.0467277354
0.0471874473
0.0476390659
0.0480822347
0.0485165944
0.0489417825
0.0493574338
0.0497631806
0.0501586521
0.0505434754
0.0509172749
0.0512796725
0.051630288
0.0519687388
0.0522946404
0.0526076061
0.0529072472
0.0531931734
0.0534649925
0.0537223105
0.0539647321
0.0541918604
0.0544032973
0.0545986431
0.0547774973
0.0549394583
0.0550841233
0.0552110888
0.0553199508
0.0554103043
0.0554817439
0.055533864
0.0555662583
0.0555785206
0.0555702446
0.0555410239
0.0554904523
0.0554181239
0.0553236331
0.0552065747
0.0550665443
0.0549031382
0.0547159532
0.0545045875
0.05426864
0.0540077109
0.0537214019
0.0534093157
0.0530710568
0.0527062314
0.0523144473
0.0518953143
0.0514484442
0.0509734507
0.0504699502
0.049937561
0.0493759042
0.0487846034
0.0481632849
0.0475115779
0.0468291145
0.0461155299
0.0453704626
0.0445935543
0.0437844502
0.042942799
0.0420682533
0.0411604692
0.0402191068
0.0392438304
0.0382343084
0.0371902132
0.036111222
0.0349970161
0.0338472818
0.0326617098
0.0314399958
0.0301818404
0.0288869494
0.0275550337
0.0261858094
0.024778998
0.0233343268
0.0218515285
0.0203303413
0.0187705097
0.0171717839
0.0155339201
0.0138566808
0.0121398346
0.0103831565
0.008586428
0.00674943716
0.00487197864
0.00295385387
0.00099487113
0.00100515437
0.00304640039
0.00512903756
0.00725322929
0.00941913171
0.0116268935
0.013876656
0.0161685529
0.0185027101
0.0208792461
0.0232982713
0.0257598884
0.028264192
0.0308112688
0.0334011973
0.036034048
0.0387098828
0.0414287556
0.0441907117
0.0469957882
0.0498440135
0.0527354075
0.0556699814
0.0586477378
0.0616686704
0.0647327645
0.067839996
0.0709903323
0.0741837318
0.0774201438
0.0806995087
0.0840217577
0.0873868129
0.0907945874
0.0942449851
0.0977379004
0.101273219
0.104850817
0.10847056
0.112132307
0.115835906
0.119581195
0.123368004
0.127196153
0.131065453
0.134975704
0.138926698
0.142918219
0.146950038
0.151021919
0.155133616
0.159284874
0.163475429
0.167705005
0.171973319
0.176280079
0.180624981
0.185007715
0.189427958
0.193885382
0.198379645
0.202910399
0.207477286
0.212079939
0.21671798
0.221391025
0.226098679
0.230840537
0.235616187
0.240425207
0.245267167
0.250141627
0.255048138
0.259986244
0.264955478
0.269955367
0.274985427
0.280045167
0.285134087
0.290251678
0.295397424
0.3005708
0.305771273
0.310998302
0.316251338
0.321529824
0.326833195
0.332160878
0.337512294
0.342886855
0.348283965
0.353703022
0.359143416
0.364604529
0.370085739
0.375586414
0.381105915
0.386643598
0.392198813
0.3977709
0.403359196
0.408963029
0.414581724
0.420214598
0.42586096
0.431520118
0.43719137
0.44287401
0.448567328
0.454270606
0.459983122
0.46570415
0.471432957
0.477168807
0.482910958
0.488658665
0.494411177
0.500167739
0.505927594
0.511689979
0.517454126
0.523219267
0.528984627
0.53474943
0.540512895
0.54627424
0.552032677
0.55778742
0.563537675
0.569282649
0.575021546
0.580753567
0.586477913
0.59219378
0.597900366
0.603596864
0.609282469
0.614956372
0.620617764
0.626265837
0.631899779
0.63751878
0.643122028
0.648708713
0.654278022
0.659829144
0.665361268
0.670873584
0.676365282
0.681835553
0.687283588
0.692708581
0.698109726
0.703486218
0.708837256
0.714162039
0.719459767
0.724729644
0.729970876
0.735182671
0.74036424
0.745514796
0.750633557
0.755719741
0.760772573
0.765791278
0.770775086
0.775723232
0.780634954
0.785509493
0.790346097
0.795144015
0.799902504
0.804620823
0.809298238
0.813934019
0.818527441
0.823077785
0.827584338
0.832046391
0.836463243
0.840834198
0.845158566
0.849435662
0.853664812
0.857845343
0.861976592
0.866057902
0.870088624
0.874068115
0.87799574
0.88187087
0.885692886
0.889461176
0.893175134
0.896834165
0.900437679
0.903985097
0.907475846
0.910909364
0.914285096
0.917602496
0.920861027
0.92406016
0.927199378
0.93027817
0.933296037
0.936252486
0.939147038
0.94197922
0.94474857
0.947454638
0.950096979
0.952675164
0.955188769
0.957637383
0.960020606
0.962338047
0.964589325
0.96677407
0.968891925
0.970942541
0.97292558
0.974840717
0.976687636
0.978466033
0.980175615
0.9818161
0.983387217
0.984888707
0.986320323
0.987681827
0.988972995
0.990193613
0.99134348
0.992422405
0.993430211
0.994366729
0.995231805
0.996025297
0.996747071
0.99739701
0.997975004
0.998480959
0.998914791
0.999276427
0.999565808
0.999782886
0.999927625
1
1
0.999927625
0.999782886
0.999565808
0.999276427
0.998914791
0.998480959
0.997975004
0.99739701
0.996747071
0.996025297
0.995231805
0.994366729
0.993430211
0.992422405
0.99134348
0.990193613
0.988972995
0.987681827
0.986320323
0.984888707
0.983387217
0.9818161
0.980175615
0.978466033
0.976687636
0.974840717
0.97292558
0.970942541
0.968891925
0.96677407
0.964589325
0.962338047
0.960020606
0.957637383
0.955188769
0.952675164
0.950096979
0.947454638
0.94474857
0.94197922
0.939147038
0.936252486
0.933296037
0.93027817
0.927199378
0.92406016
0.920861027
0.917602496
0.914285096
0.910909364
0.907475846
0.903985097
0.900437679
0.896834165
0.893175134
0.889461176
0.885692886
0.88187087
0.87799574
0.874068115
0.870088624
0.866057902
0.861976592
0.857845343
0.853664812
0.849435662
0.845158566
0.840834198
0.836463243
0.832046391
0.827584338
0.823077785
0.818527441
0.813934019
0.809298238
0.804620823
0.799902504
0.795144015
0.790346097
0.785509493
0.780634954
0.775723232
0.770775086
0.765791278
0.760772573
0.755719741
0.750633557
0.745514796
0.74036424
0.735182671
0.729970876
0.724729644
0.719459767
0.714162039
0.708837256
0.703486218
0.698109726
0.692708581
0.687283588
0.681835553
0.676365282
0.670873584
0.665361268
0.659829144
0.654278022
0.648708713
0.643122028
0.63751878
0.631899779
0.626265837
0.620617764
0.614956372
0.609282469
0.603596864
0.597900366
0.59219378
0.586477913
0.580753567
0.575021546
0.569282649
0.563537675
0.55778742
0.552032677
0.54627424
0.540512895
0.53474943
0.528984627
0.523219267
0.517454126
0.511689979
0.505927594
0.500167739
0.494411177
0.488658665
0.482910958
0.477168807
0.471432957
0.46570415
0.459983122
0.454270606
0.448567328
0.44287401
0.43719137
0.431520118
0.42586096
0.420214598
0.414581724
0.408963029
0.403359196
0.3977709
0.392198813
0.386643598
0.381105915
0.375586414
0.370085739
0.364604529
0.359143416
0.353703022
0.348283965
0.342886855
0.337512294
0.332160878
0.326833195
0.321529824
0.316251338
0.310998302
0.305771273
0.3005708
0.295397424
0.290251678
0.285134087
0.280045167
0.274985427
0.269955367
0.264955478
0.259986244
0.255048138
0.250141627
0.245267167
0.240425207
0.235616187
0.230840537
0.226098679
0.221391025
0.21671798
0.212079939
0.207477286
0.202910399
0.198379645
0.193885382
0.189427958
0.185007715
0.180624981
0.176280079
0.171973319
0.167705005
0.163475429
0.159284874
0.155133616
0.151021919
0.146950038
0.142918219
0.138926698
0.134975704
0.131065453
0.127196153
0.123368004
0.119581195
0.115835906
0.112132307
0.10847056
0.104850817
0.101273219
0.0977379004
0.0942449851
0.0907945874
0.0873868129
0.0840217577
0.0806995087
0.0774201438
0.0741837318
0.0709903323
0.067839996
0.0647327645
0.0616686704
0.0586477378
0.0556699814
0.0527354075
0.0498440135
0.0469957882
0.0441907117
0.0414287556
0.0387098828
0.036034048
0.0334011973
0.0308112688
0.028264192
0.0257598884
0.0232982713
0.0208792461
0.0185027101
0.0161685529
0.013876656
0.0116268935
0.00941913171
0.00725322929
0.00512903756
0.00304640039
0.00100515437
0.00099487113
0.00295385387
0.00487197864
0.00674943716
0.008586428
0.0103831565
0.0121398346
0.0138566808
0.0155339201
0.0171717839
0.0187705097
0.0203303413
0.0218515285
0.0233343268
0.024778998
0.0261858094
0.0275550337
0.0288869494
0.0301818404
0.0314399958
0.0326617098
0.0338472818
0.0349970161
0.036111222
0.0371902132
0.0382343084
0.0392438304
0.0402191068
0.0411604692
0.0420682533
0.042942799
0.0437844502
0.0445935543
0.0453704626
0.0461155299
0.0468291145
0.0475115779
0.0481632849
0.0487846034
0.0493759042
0.049937561
0.0504699502
0.0509734507
0.0514484442
0.0518953143
0.0523144473
0.0527062314
0.0530710568
0.0534093157
0.0537214019
0.0540077109
0.05426864
0.0545045875
0.0547159532
0.0549031382
0.0550665443
0.0552065747
0.0553236331
0.0554181239
0.0554904523
0.0555410239
0.0555702446
